 ===== energy eigen values =====
 ik =    1 (  0.250000  0.250000  0.250000 )
     -0.85693782     -0.85693460     -0.85693144     -0.85652739     -0.85652446
     -0.85634479     -0.85629177     -0.85628810     -0.85608807     -0.85604787
     -0.85604764     -0.85578682     -0.85568089     -0.85568017     -0.85565254
     -0.85557038     -0.85556959     -0.85553089     -0.85545755     -0.85544590
     -0.85544138     -0.85533087     -0.85528803     -0.85528749     -0.85526824
     -0.85523468     -0.85523160     -0.85511923     -0.85506277     -0.85506182
     -0.85503466     -0.85503390     -0.85500478     -0.85496879     -0.85496861
     -0.85490369     -0.85488381     -0.85488254     -0.85476246     -0.85476184
     -0.85470838     -0.85467503     -0.85460466     -0.85460394     -0.85433460
     -0.85420725     -0.85420662     -0.85418882     -0.85408849     -0.85407797
     -0.85407748     -0.85391934     -0.85391900     -0.85391714     -0.85367046
     -0.85366991     -0.85358209     -0.85358199     -0.85357868     -0.85345159
     -0.85344957     -0.85344531     -0.85328499     -0.85305252     -0.85305196
     -0.85301424     -0.85273978     -0.85260678     -0.85260549     -0.85252255
     -0.85252212     -0.85246037     -0.85227226     -0.85227191     -0.85226910
     -0.85196543     -0.85196503     -0.85176781     -0.85172312     -0.85172266
     -0.85158350     -0.85153060     -0.85152803     -0.85152789     -0.85142440
     -0.85142263     -0.85118536     -0.85116760     -0.85116748     -0.85097576
     -0.85088630     -0.85088531     -0.85076954     -0.85076887     -0.85056940
     -0.85053095     -0.85053083     -0.85045837     -0.85039802     -0.85039772
     -0.85036110     -0.85025530     -0.85025503     -0.85009398     -0.85007995
     -0.85007939     -0.84996337     -0.84995566     -0.84995514     -0.84975077
     -0.84966090     -0.84965948     -0.84963546     -0.84947330     -0.84941922
     -0.84941894     -0.84937330     -0.84934450     -0.84934447     -0.84923024
     -0.84923013     -0.84909218     -0.84909188     -0.84901179     -0.84900893
     -0.84895713     -0.84895710     -0.84889650     -0.84877312     -0.84877294
     -0.84871503     -0.84871442     -0.84860266     -0.84852921     -0.84851380
     -0.84851307     -0.84845886     -0.84833862     -0.84833782     -0.84822309
     -0.84819959     -0.84819911     -0.84816503     -0.84804477     -0.84804442
     -0.84798069     -0.84794282     -0.84794265     -0.84780832     -0.84766381
     -0.84766379     -0.84754524     -0.84754456     -0.84746265     -0.84740285
     -0.84733642     -0.84733362     -0.84723695     -0.84723568     -0.84723544
     -0.84712637     -0.84697700     -0.84697627     -0.84696341     -0.84687051
     -0.84681639     -0.84681567     -0.84664286     -0.84662985     -0.84662973
     -0.84649591     -0.84649503     -0.84644142     -0.84628904     -0.84628608
     -0.84623317     -0.84612333     -0.84612173     -0.84608070     -0.84608012
     -0.84602780     -0.84599473     -0.84589701     -0.84589640     -0.84579429
     -0.84579414     -0.84575412     -0.84563143     -0.84560422     -0.84560378
     -0.84549132     -0.84541002     -0.84536054     -0.84536033     -0.84527928
     -0.84527882     -0.84512412     -0.84510646     -0.84510620     -0.84504507
     -0.84503008     -0.84501326     -0.84501318     -0.84486214     -0.84486189
     -0.84477094     -0.84474896     -0.84468916     -0.84468761     -0.84454349
     -0.84454294     -0.84449453     -0.84449395     -0.84446833     -0.84445024
     -0.84431468     -0.84430911     -0.84423692     -0.84420665     -0.84420194
     -0.84411048     -0.84410759     -0.84399374     -0.84398927     -0.84398514
     -0.84389004     -0.84381547     -0.84381507     -0.84375800     -0.84374477
     -0.84374323     -0.84364077     -0.84351509     -0.84344709     -0.84344696
     -0.84329907     -0.84329874     -0.84325465     -0.84302648     -0.84302633
     -0.84293538     -0.84280880     -0.84280802     -0.84276634     -0.84276615
     -0.84265897     -0.84265888     -0.84247933     -0.84247898     -0.84246140
     -0.84212366     -0.84212290     -0.84207456     -0.84185000     -0.84184767
     -0.84180768     -0.84176943     -0.84172924     -0.84171708     -0.84161813
     -0.84160953     -0.84160325     -0.84148238     -0.84148187     -0.84126299
     -0.84126258     -0.84124082     -0.84111183     -0.84105485     -0.84105481
     -0.84102638     -0.84102619     -0.84102373     -0.84083830     -0.84067483
     -0.84067440     -0.84059904     -0.84055613     -0.84053066     -0.84053047
     -0.84048208     -0.84048190     -0.84045840     -0.84040723     -0.84040704
     -0.84039093     -0.84031737     -0.84031310     -0.84031295     -0.84025512
     -0.84025441     -0.84020270     -0.84020251     -0.84014103     -0.84013973
     -0.84008564     -0.84005780     -0.83998613     -0.83997126     -0.83997099
     -0.83981195     -0.83981182     -0.83966919     -0.83964237     -0.83956597
     -0.83956473     -0.83941706     -0.83882842     -0.83882087     -0.83881984
     -0.83864017     -0.83863938     -0.83860674     -0.83858970     -0.83858880
     -0.42641194     -0.41379210     -0.41378951     -0.41175756     -0.40167551
     -0.40167357     -0.39902473     -0.39078033     -0.38799372     -0.38799211
     -0.38610226     -0.37890515     -0.37885164     -0.37884707     -0.37842402
     -0.37841264     -0.37777565     -0.37532564     -0.37532359     -0.36816832
     -0.36311292     -0.36311134     -0.35692049     -0.35121144     -0.35120411
     -0.35118085     -0.34909497     -0.34902317     -0.34901690     -0.34750798
     -0.34750593     -0.32547134     -0.30607642     -0.30607588     -0.30603096
     -0.30580605     -0.30571893     -0.30571109     -0.30277183     -0.30277166
     -0.29362026     -0.29128804     -0.29127825     -0.28466998     -0.28162548
     -0.28162468     -0.27725699     -0.27085200     -0.27084267     -0.27083705
     -0.26836409     -0.26836186     -0.26051375     -0.25529065     -0.25262181
     -0.25261689     -0.23625661     -0.23243247     -0.23242914     -0.20681352
     -0.19898079     -0.19898027     -0.16945628     -0.16878796     -0.16878621
     -0.16790092     -0.16759649     -0.16759597     -0.16590733     -0.16525825
     -0.16525597     -0.15776813     -0.15419255     -0.15396948     -0.15396856
     -0.15369507     -0.15369248     -0.15335617     -0.15130410     -0.15022924
     -0.15022784     -0.14148130     -0.14128806     -0.14128608     -0.14020466
     -0.14020214     -0.13947986     -0.13812470     -0.13648281     -0.13644150
     -0.13643902     -0.13447873     -0.13447546     -0.13224732     -0.13209066
     -0.13208505     -0.12765683     -0.12765572     -0.12437842     -0.12419351
     -0.12165977     -0.12165812     -0.11658912     -0.11631298     -0.11630278
     -0.11628010     -0.11598031     -0.11597242     -0.11235154     -0.11234945
     -0.10837028     -0.10791197     -0.10415338     -0.10415239     -0.10086778
     -0.10086386     -0.09825589     -0.09640142     -0.09639854     -0.08994729
     -0.08994525     -0.08986165     -0.08581244     -0.07504327     -0.07453397
     -0.07453082     -0.06217682     -0.05454976     -0.05454789     -0.04602382
     -0.03081218     -0.03081060     -0.02785790     -0.02753588     -0.02753256
     -0.02555761     -0.02502593     -0.02501773     -0.02161508     -0.01682154
     -0.01680135     -0.01673850     -0.01449185     -0.01447009     -0.01234708
     -0.00944424     -0.00942674     -0.00075423     -0.00003222      0.00002213
      0.00023974      0.00050326      0.00072943      0.00111292      0.00336919
      0.00415050      0.00473677      0.00642380      0.00667044      0.00767138
      0.00895469      0.01093922      0.01157366      0.01389513
 ===== energy eigen values =====
 ik =    2 ( -0.250000 -0.250000  0.250000 )
     -0.85693799     -0.85693646     -0.85692913     -0.85652742     -0.85652512
     -0.85634457     -0.85629172     -0.85628808     -0.85609115     -0.85604775
     -0.85604468     -0.85578328     -0.85568755     -0.85568075     -0.85565123
     -0.85557193     -0.85557023     -0.85552652     -0.85545684     -0.85544435
     -0.85544372     -0.85532872     -0.85528822     -0.85528754     -0.85527022
     -0.85523355     -0.85523138     -0.85512013     -0.85506408     -0.85506272
     -0.85503267     -0.85503116     -0.85500635     -0.85496860     -0.85496824
     -0.85490518     -0.85488430     -0.85488340     -0.85476224     -0.85476140
     -0.85470936     -0.85467523     -0.85460455     -0.85460220     -0.85433517
     -0.85420673     -0.85420635     -0.85418914     -0.85408898     -0.85407827
     -0.85407755     -0.85391922     -0.85391837     -0.85391606     -0.85367065
     -0.85367052     -0.85358197     -0.85358017     -0.85357860     -0.85345164
     -0.85345115     -0.85344558     -0.85328586     -0.85305221     -0.85305148
     -0.85301476     -0.85274149     -0.85260659     -0.85260464     -0.85252327
     -0.85252153     -0.85245862     -0.85227238     -0.85227179     -0.85227030
     -0.85196448     -0.85196434     -0.85176708     -0.85172314     -0.85172257
     -0.85158440     -0.85153235     -0.85152791     -0.85152713     -0.85142337
     -0.85142201     -0.85118552     -0.85116765     -0.85116722     -0.85097712
     -0.85088587     -0.85088496     -0.85076964     -0.85076875     -0.85057044
     -0.85053095     -0.85053062     -0.85046020     -0.85039877     -0.85039732
     -0.85036076     -0.85025508     -0.85025479     -0.85009372     -0.85007876
     -0.85007797     -0.84996464     -0.84995536     -0.84995506     -0.84975138
     -0.84966065     -0.84966025     -0.84963616     -0.84947351     -0.84941917
     -0.84941904     -0.84937341     -0.84934600     -0.84934452     -0.84923028
     -0.84923021     -0.84909072     -0.84909018     -0.84901113     -0.84900902
     -0.84895839     -0.84895707     -0.84889757     -0.84877254     -0.84877232
     -0.84871492     -0.84871443     -0.84860181     -0.84852893     -0.84851421
     -0.84851326     -0.84845938     -0.84833939     -0.84833831     -0.84822324
     -0.84819971     -0.84819872     -0.84816523     -0.84804462     -0.84804439
     -0.84798176     -0.84794280     -0.84794228     -0.84780842     -0.84766385
     -0.84766364     -0.84754498     -0.84754474     -0.84746244     -0.84740292
     -0.84733662     -0.84733419     -0.84723689     -0.84723600     -0.84723562
     -0.84712611     -0.84697586     -0.84697564     -0.84696326     -0.84686947
     -0.84681563     -0.84681531     -0.84664225     -0.84662968     -0.84662947
     -0.84649624     -0.84649575     -0.84644021     -0.84628930     -0.84628585
     -0.84623392     -0.84612249     -0.84612157     -0.84608016     -0.84607941
     -0.84602747     -0.84599413     -0.84589714     -0.84589674     -0.84579483
     -0.84579427     -0.84575482     -0.84563152     -0.84560425     -0.84560406
     -0.84549141     -0.84541079     -0.84536034     -0.84536025     -0.84527950
     -0.84527921     -0.84512412     -0.84510649     -0.84510630     -0.84504567
     -0.84503027     -0.84501369     -0.84501313     -0.84486244     -0.84486215
     -0.84477113     -0.84474925     -0.84468851     -0.84468797     -0.84454408
     -0.84454306     -0.84449472     -0.84449389     -0.84446749     -0.84445038
     -0.84431534     -0.84431031     -0.84423629     -0.84420670     -0.84420164
     -0.84410921     -0.84410755     -0.84399428     -0.84398946     -0.84398521
     -0.84388998     -0.84381516     -0.84381505     -0.84375754     -0.84374431
     -0.84374353     -0.84364114     -0.84351519     -0.84344684     -0.84344675
     -0.84329928     -0.84329884     -0.84325428     -0.84302685     -0.84302610
     -0.84293514     -0.84280843     -0.84280795     -0.84276674     -0.84276656
     -0.84265917     -0.84265874     -0.84247946     -0.84247930     -0.84246083
     -0.84212396     -0.84212295     -0.84207436     -0.84185010     -0.84184764
     -0.84180760     -0.84177040     -0.84172842     -0.84171655     -0.84161838
     -0.84160943     -0.84160307     -0.84148225     -0.84148165     -0.84126262
     -0.84126216     -0.84124090     -0.84111216     -0.84105470     -0.84105459
     -0.84102681     -0.84102608     -0.84102401     -0.84083842     -0.84067438
     -0.84067419     -0.84060005     -0.84055613     -0.84053064     -0.84053046
     -0.84048213     -0.84048199     -0.84045872     -0.84040726     -0.84040675
     -0.84039174     -0.84031682     -0.84031317     -0.84031265     -0.84025524
     -0.84025419     -0.84020260     -0.84020211     -0.84014092     -0.84013991
     -0.84008528     -0.84005861     -0.83998635     -0.83997143     -0.83997061
     -0.83981201     -0.83981177     -0.83966896     -0.83964152     -0.83956616
     -0.83956598     -0.83941659     -0.83882747     -0.83882084     -0.83882073
     -0.83864024     -0.83863917     -0.83860657     -0.83858981     -0.83858903
     -0.42641154     -0.41379635     -0.41379188     -0.41175071     -0.40167937
     -0.40167501     -0.39901931     -0.39077751     -0.38799740     -0.38799279
     -0.38609329     -0.37890937     -0.37885974     -0.37885183     -0.37842109
     -0.37841666     -0.37777677     -0.37532594     -0.37531874     -0.36816228
     -0.36311380     -0.36310911     -0.35691316     -0.35121352     -0.35120838
     -0.35118003     -0.34909877     -0.34902638     -0.34902073     -0.34750705
     -0.34750015     -0.32547003     -0.30607823     -0.30607327     -0.30603490
     -0.30580324     -0.30571309     -0.30570983     -0.30277155     -0.30276925
     -0.29362940     -0.29129249     -0.29128874     -0.28467259     -0.28162345
     -0.28161390     -0.27725170     -0.27085702     -0.27083437     -0.27082888
     -0.26835934     -0.26835765     -0.26052517     -0.25530025     -0.25262438
     -0.25262148     -0.23625937     -0.23243331     -0.23242471     -0.20681131
     -0.19898015     -0.19897126     -0.16945027     -0.16878762     -0.16878567
     -0.16789731     -0.16759972     -0.16759736     -0.16590067     -0.16526299
     -0.16525937     -0.15776774     -0.15418160     -0.15397571     -0.15397244
     -0.15369458     -0.15369353     -0.15335361     -0.15130391     -0.15023241
     -0.15022767     -0.14148036     -0.14129295     -0.14128845     -0.14020469
     -0.14020099     -0.13947580     -0.13812130     -0.13648570     -0.13644190
     -0.13643629     -0.13448426     -0.13448147     -0.13224385     -0.13209191
     -0.13208766     -0.12765888     -0.12765675     -0.12438234     -0.12419530
     -0.12166002     -0.12165519     -0.11659319     -0.11631540     -0.11630881
     -0.11628193     -0.11598167     -0.11597689     -0.11235210     -0.11235123
     -0.10837579     -0.10790437     -0.10415396     -0.10414818     -0.10086981
     -0.10086515     -0.09825549     -0.09640028     -0.09639011     -0.08994376
     -0.08993719     -0.08986099     -0.08581242     -0.07505115     -0.07453224
     -0.07452169     -0.06217266     -0.05455067     -0.05454270     -0.04601864
     -0.03081917     -0.03081039     -0.02785731     -0.02753693     -0.02752938
     -0.02556166     -0.02502363     -0.02500948     -0.02160911     -0.01682086
     -0.01680430     -0.01674095     -0.01448816     -0.01447342     -0.01234922
     -0.00943888     -0.00941680     -0.00071469     -0.00000833      0.00007015
      0.00014301      0.00051333      0.00073228      0.00081953      0.00343931
      0.00382506      0.00506770      0.00637114      0.00680335      0.00758729
      0.00911592      0.01025020      0.01175623      0.01308423
 ===== energy eigen values =====
 ik =    3 ( -0.250000  0.250000 -0.250000 )
     -0.85693794     -0.85693620     -0.85692946     -0.85652739     -0.85652503
     -0.85634427     -0.85629124     -0.85628908     -0.85609065     -0.85604782
     -0.85604516     -0.85578329     -0.85568792     -0.85568090     -0.85565240
     -0.85557150     -0.85557005     -0.85552543     -0.85545607     -0.85544386
     -0.85544307     -0.85533030     -0.85528897     -0.85528665     -0.85526967
     -0.85523333     -0.85523192     -0.85511957     -0.85506524     -0.85506239
     -0.85503279     -0.85503109     -0.85500612     -0.85496936     -0.85496833
     -0.85490632     -0.85488376     -0.85488249     -0.85476233     -0.85476129
     -0.85470941     -0.85467434     -0.85460478     -0.85460333     -0.85433515
     -0.85420643     -0.85420553     -0.85418861     -0.85408905     -0.85407818
     -0.85407726     -0.85391926     -0.85391916     -0.85391726     -0.85367019
     -0.85366978     -0.85358238     -0.85358148     -0.85357870     -0.85345122
     -0.85345079     -0.85344455     -0.85328665     -0.85305209     -0.85305124
     -0.85301386     -0.85274139     -0.85260685     -0.85260594     -0.85252274
     -0.85252121     -0.85245955     -0.85227269     -0.85227177     -0.85226956
     -0.85196479     -0.85196405     -0.85176753     -0.85172322     -0.85172283
     -0.85158438     -0.85153152     -0.85152781     -0.85152692     -0.85142390
     -0.85142180     -0.85118613     -0.85116724     -0.85116701     -0.85097687
     -0.85088621     -0.85088526     -0.85076983     -0.85076863     -0.85057062
     -0.85053091     -0.85053069     -0.85045981     -0.85039854     -0.85039711
     -0.85036045     -0.85025525     -0.85025466     -0.85009351     -0.85007899
     -0.85007846     -0.84996441     -0.84995542     -0.84995475     -0.84975163
     -0.84966038     -0.84965974     -0.84963577     -0.84947381     -0.84941930
     -0.84941895     -0.84937370     -0.84934542     -0.84934509     -0.84923017
     -0.84922998     -0.84909085     -0.84909061     -0.84901093     -0.84900911
     -0.84895823     -0.84895698     -0.84889757     -0.84877295     -0.84877222
     -0.84871559     -0.84871467     -0.84860235     -0.84852961     -0.84851401
     -0.84851346     -0.84845906     -0.84833923     -0.84833836     -0.84822373
     -0.84819941     -0.84819826     -0.84816488     -0.84804456     -0.84804382
     -0.84798140     -0.84794316     -0.84794259     -0.84780823     -0.84766383
     -0.84766300     -0.84754515     -0.84754479     -0.84746246     -0.84740241
     -0.84733673     -0.84733401     -0.84723731     -0.84723583     -0.84723482
     -0.84712602     -0.84697631     -0.84697568     -0.84696385     -0.84686995
     -0.84681638     -0.84681561     -0.84664205     -0.84662959     -0.84662921
     -0.84649657     -0.84649541     -0.84644010     -0.84628962     -0.84628613
     -0.84623366     -0.84612274     -0.84612171     -0.84608040     -0.84607982
     -0.84602785     -0.84599440     -0.84589651     -0.84589651     -0.84579469
     -0.84579427     -0.84575430     -0.84563100     -0.84560445     -0.84560377
     -0.84549120     -0.84541080     -0.84536009     -0.84535974     -0.84527952
     -0.84527927     -0.84512403     -0.84510641     -0.84510614     -0.84504559
     -0.84502999     -0.84501341     -0.84501296     -0.84486278     -0.84486209
     -0.84477092     -0.84474971     -0.84468927     -0.84468791     -0.84454400
     -0.84454292     -0.84449481     -0.84449401     -0.84446813     -0.84445012
     -0.84431501     -0.84430993     -0.84423639     -0.84420644     -0.84420198
     -0.84410994     -0.84410750     -0.84399406     -0.84398937     -0.84398529
     -0.84388970     -0.84381564     -0.84381511     -0.84375775     -0.84374505
     -0.84374317     -0.84364088     -0.84351515     -0.84344694     -0.84344632
     -0.84329962     -0.84329858     -0.84325406     -0.84302668     -0.84302624
     -0.84293521     -0.84280855     -0.84280783     -0.84276680     -0.84276647
     -0.84265931     -0.84265849     -0.84247951     -0.84247925     -0.84246102
     -0.84212387     -0.84212297     -0.84207449     -0.84184986     -0.84184795
     -0.84180750     -0.84177072     -0.84172807     -0.84171657     -0.84161842
